"bin bottom",azimuth,altitude,"distance (m)",latitude,longitude,"elevation (m amsl)"
0,0.097469,3.006831,46621.406849,37.652500,-118.282500,3805.000000
0.125,0.232117,3.065303,43843.223551,37.627500,-118.281389,3687.000000
0.25,0.360038,3.142545,43909.129360,37.628056,-118.280278,3750.000000
0.375,0.488283,3.195884,43912.387283,37.628056,-118.279167,3791.000000
0.5,0.616959,3.232172,43884.173759,37.627778,-118.278056,3817.000000
0.625,0.74634,3.284073,43826.050914,37.627222,-118.276944,3853.000000
0.75,0.874839,3.358319,43831.109776,37.627222,-118.275833,3910.000000
0.875,0.971208,3.381698,43833.472228,37.627222,-118.275000,3928.000000
1,1.09969,3.411545,43836.760764,37.627222,-118.273889,3951.000000
1.125,1.227292,3.433500,43870.791080,37.627500,-118.272778,3970.000000
1.25,1.35566,3.452856,43874.006528,37.627500,-118.271667,3985.000000
1.375,1.485066,3.489210,43847.415684,37.627222,-118.270556,4011.000000
1.5,1.613496,3.500710,43850.683201,37.627222,-118.269444,4020.000000
1.625,1.644436,3.500558,43882.284734,37.627500,-118.269167,4022.000000
1.75,1.846974,3.500882,39092.288211,37.584444,-118.269167,3703.000000
1.875,1.987917,3.529616,39158.712982,37.585000,-118.268056,3727.000000
2,2.095805,3.543956,39162.017216,37.585000,-118.267222,3737.000000
2.125,2.236086,3.565238,39228.534455,37.585556,-118.266111,3756.000000
2.25,2.345623,3.573818,39201.004904,37.585278,-118.265278,3760.000000
2.375,2.383429,3.573847,39171.133577,37.585000,-118.265000,3758.000000
2.5,2.608846,3.584194,44409.542822,37.631944,-118.260556,4122.000000
2.625,2.731742,3.665737,44480.350988,37.632500,-118.259444,4190.000000
2.75,2.854268,3.720061,44549.950855,37.633056,-118.258333,4237.000000
2.875,2.976426,3.734490,44617.563705,37.633611,-118.257222,4253.000000
3,3.100372,3.813105,44658.134445,37.633889,-118.256111,4317.000000
3.125,3.16337,3.823090,44661.407184,37.633889,-118.255556,4325.000000
3.25,3.260119,3.806373,44633.726487,37.633611,-118.254722,4310.000000
3.375,3.388512,3.747210,44605.241541,37.633333,-118.253611,4262.000000
3.5,3.624384,3.706677,39005.304875,37.583056,-118.255556,3837.000000
3.625,3.735534,3.734279,38980.533877,37.582778,-118.254722,3854.000000
3.75,3.843771,3.770422,38987.189934,37.582778,-118.253889,3879.000000
3.875,3.991221,3.805200,38964.794043,37.582500,-118.252778,3901.000000
4,4.109295,3.812920,38877.860935,37.581667,-118.251944,3900.000000
4.125,4.221149,3.845023,38853.983816,37.581389,-118.251111,3920.000000
4.25,4.358901,3.865586,38924.089735,37.581944,-118.250000,3939.000000
4.375,4.499743,3.886418,38963.607834,37.582222,-118.248889,3956.000000
4.5,4.575522,3.905446,38937.641292,37.581944,-118.248333,3967.000000
4.625,4.647701,3.899149,38941.301820,37.581944,-118.247778,3963.000000
4.75,4.752154,3.871730,38976.835225,37.582222,-118.246944,3947.000000
4.875,4.879691,3.836053,38827.192556,37.580833,-118.246111,3912.000000
5,5.020356,3.809824,38865.250910,37.581111,-118.245000,3897.000000
5.125,5.140243,3.798298,39058.278722,37.582778,-118.243889,3903.000000
5.25,5.360097,3.797173,39041.002557,37.582500,-118.242222,3901.000000
5.375,5.396043,3.801322,39043.524156,37.582500,-118.241944,3904.000000
5.5,5.503857,3.775705,39049.313937,37.582500,-118.241111,3887.000000
5.625,5.733044,3.794917,34309.958678,37.540000,-118.244722,3563.000000
5.75,5.855721,3.860645,34320.279425,37.540000,-118.243889,3603.000000
5.875,5.983744,3.910067,34299.326961,37.539722,-118.243056,3631.000000
6,6.123011,3.928685,34215.700673,37.538889,-118.242222,3636.000000
6.125,6.163999,3.926692,34218.259562,37.538889,-118.241944,3635.000000
6.25,6.327891,3.932057,34229.257902,37.538889,-118.240833,3639.000000
6.375,6.474173,3.937736,34114.834282,37.537778,-118.240000,3634.000000
6.5,6.6094,3.949283,34062.338846,37.537222,-118.239167,3637.000000
6.625,6.726672,3.967900,34102.496094,37.537500,-118.238333,3651.000000
6.75,6.872224,3.995189,34207.561913,37.538333,-118.237222,3675.000000
6.875,6.995024,4.044172,34218.721189,37.538333,-118.236389,3705.000000
7,7.124205,4.093657,34199.390934,37.538056,-118.235556,3733.000000
7.125,7.246983,4.145918,34211.076922,37.538056,-118.234722,3765.000000
7.25,7.369693,4.194784,34222.791903,37.538056,-118.233889,3795.000000
7.375,7.46497,4.232020,34169.564567,37.537500,-118.233333,3813.000000
7.5,7.546853,4.242872,34176.540264,37.537500,-118.232778,3820.000000
7.625,7.642551,4.235015,34121.368893,37.536944,-118.232222,3811.000000
7.75,7.752651,4.209985,34004.175517,37.535833,-118.231667,3787.000000
7.875,7.890337,4.196514,33952.344788,37.535278,-118.230833,3775.000000
8,8.021117,4.180662,33931.241234,37.535000,-118.230000,3764.000000
8.125,8.21792,4.208400,17819.415124,37.391667,-118.254722,2542.000000
8.25,8.296422,4.210743,17823.022399,37.391667,-118.254444,2543.000000
8.375,8.389425,4.210898,17796.012609,37.391389,-118.254167,2541.000000
8.5,8.546535,4.180244,17802.572582,37.391389,-118.253611,2532.000000
8.625,8.70858,4.206162,11615.411515,37.336389,-118.263611,2074.000000
8.75,8.828924,4.239193,11619.687087,37.336389,-118.263333,2081.000000
8.875,8.94919,4.272181,11624.017537,37.336389,-118.263056,2088.000000
9,9.093491,4.306801,11597.887733,37.336111,-118.262778,2093.000000
9.125,9.213905,4.320088,11602.029466,37.336111,-118.262500,2096.000000
9.25,9.334237,4.318580,11605.991458,37.336111,-118.262222,2096.000000
9.375,9.454485,4.317053,11610.004389,37.336111,-118.261944,2096.000000
9.5,9.574649,4.310590,11613.991313,37.336111,-118.261667,2095.000000
9.625,9.694728,4.289360,11617.799379,37.336111,-118.261389,2091.000000
9.75,9.852638,4.273191,33290.652615,37.527778,-118.219167,3768.000000
9.875,9.987165,4.321936,33275.226150,37.527500,-118.218333,3795.000000
10,10.070693,4.329335,33284.190129,37.527500,-118.217778,3800.000000
10.125,10.131246,4.318205,33227.082498,37.526944,-118.217500,3789.000000
10.25,10.369089,4.308783,33157.312358,37.526111,-118.216111,3778.000000
10.375,10.378756,4.306063,33126.749777,37.525833,-118.216111,3774.000000
10.5,10.504436,4.280091,33139.001732,37.525833,-118.215278,3760.000000
10.625,10.748746,4.265307,11813.499256,37.337500,-118.258611,2101.000000
10.75,10.838119,4.295878,11848.994216,37.337778,-118.258333,2110.000000
10.875,10.95534,4.308612,11853.872006,37.337778,-118.258056,2113.000000
11,11.10309,4.319537,11954.582820,37.338611,-118.257500,2123.000000
11.125,11.219173,4.365542,11960.116058,37.338611,-118.257222,2133.000000
11.25,11.335162,4.382844,11965.235399,37.338611,-118.256944,2137.000000
11.375,11.421699,4.398328,12000.693603,37.338889,-118.256667,2143.000000
11.5,11.537218,4.396494,12005.585849,37.338889,-118.256389,2143.000000
11.625,11.648683,4.409361,12136.947053,37.340000,-118.255833,2156.000000
11.75,11.762813,4.426325,12142.249440,37.340000,-118.255556,2160.000000
11.875,11.990787,4.441354,12152.683631,37.340000,-118.255000,2164.000000
12,12.104629,4.462925,12158.211137,37.340000,-118.254722,2169.000000
12.125,12.218375,4.498544,12164.028335,37.340000,-118.254444,2177.000000
12.25,12.332022,4.510647,12169.494830,37.340000,-118.254167,2180.000000
12.375,12.445571,4.518031,12174.928896,37.340000,-118.253889,2182.000000
12.5,12.559021,4.520700,12180.330081,37.340000,-118.253611,2183.000000
12.625,12.67237,4.528037,12185.859450,37.340000,-118.253333,2185.000000
12.75,12.785618,4.544716,12191.598288,37.340000,-118.253056,2189.000000
12.875,12.898765,4.561363,12197.385517,37.340000,-118.252778,2193.000000
13,13.124749,4.575843,12208.778011,37.340000,-118.252222,2197.000000
13.125,13.157846,4.592034,12178.930444,37.339722,-118.252222,2198.000000
13.25,13.270947,4.613301,12184.958288,37.339722,-118.251944,2203.000000
13.375,13.496832,4.665080,12197.326573,37.339722,-118.251389,2215.000000
13.5,13.530886,4.686179,12167.613948,37.339444,-118.251389,2217.000000
13.625,13.678418,4.728593,12144.114095,37.339167,-118.251111,2224.000000
13.75,13.791618,4.749767,12150.369806,37.339167,-118.250833,2229.000000
13.875,13.904708,4.766204,12156.589408,37.339167,-118.250556,2233.000000
14,14.053136,4.804024,12133.220378,37.338889,-118.250278,2239.000000
14.125,14.243311,4.857493,12176.310942,37.339167,-118.249722,2254.000000
14.25,14.355954,4.859707,12182.465060,37.339167,-118.249444,2255.000000
14.375,14.392186,4.871868,12152.705596,37.338889,-118.249444,2255.000000
14.5,14.504975,4.855274,12158.575430,37.338889,-118.249167,2252.000000
14.625,14.735965,4.803177,12650.567796,37.343056,-118.247222,2283.000000
14.75,14.84413,4.845843,12657.698696,37.343056,-118.246944,2293.000000
14.875,14.952187,4.888444,12664.881428,37.343056,-118.246667,2303.000000
15,15.060134,4.912961,12671.765360,37.343056,-118.246389,2309.000000
15.125,15.238897,4.950040,12715.308047,37.343333,-118.245833,2321.000000
15.25,15.34628,5.001294,12722.849104,37.343333,-118.245556,2333.000000
15.375,15.490822,5.068998,12700.936209,37.343056,-118.245278,2346.000000
15.5,15.598216,5.093256,12708.059838,37.343056,-118.245000,2352.000000
15.625,15.743408,5.156642,12686.219748,37.342778,-118.244722,2364.000000
15.75,15.850808,5.203309,12693.917491,37.342778,-118.244444,2375.000000
15.875,15.958093,5.254391,12701.761292,37.342778,-118.244167,2387.000000
16,16.065264,5.287440,12709.282777,37.342778,-118.243889,2395.000000
16.125,16.211335,5.319570,12687.088020,37.342500,-118.243611,2400.000000
16.25,16.318503,5.343587,12694.531964,37.342500,-118.243333,2406.000000
16.375,16.492783,5.378759,12738.987840,37.342778,-118.242778,2418.000000
16.5,16.59937,5.411541,12746.745021,37.342778,-118.242500,2426.000000
16.625,16.745995,5.483995,12725.739906,37.342500,-118.242222,2440.000000
16.75,16.852569,5.507746,12733.418560,37.342500,-118.241944,2446.000000
16.875,16.99982,5.544488,12711.793586,37.342222,-118.241667,2452.000000
17,17.106379,5.572664,12719.680711,37.342222,-118.241389,2459.000000
17.125,17.230595,5.616790,12631.829431,37.341389,-118.241389,2460.000000
17.25,17.337709,5.681136,12640.622969,37.341389,-118.241111,2475.000000
17.375,17.486945,5.740900,12619.806819,37.341111,-118.240833,2486.000000
17.5,17.594033,5.787120,12628.324518,37.341111,-118.240556,2497.000000
17.625,17.743892,5.860608,12607.990414,37.340833,-118.240278,2511.000000
17.75,17.871387,5.974259,12684.846796,37.341389,-118.239722,2544.000000
17.875,17.977741,6.020009,12693.562566,37.341389,-118.239444,2555.000000
18,18.083967,6.052221,12702.007544,37.341389,-118.239167,2563.000000
18.125,18.233874,6.103112,12681.487125,37.341111,-118.238889,2572.000000
18.25,18.340061,6.144224,12690.264140,37.341111,-118.238611,2582.000000
18.375,18.446118,6.189742,12699.200410,37.341111,-118.238333,2593.000000
18.5,18.596715,6.236271,12678.804908,37.340833,-118.238056,2601.000000
18.625,18.702727,6.277226,12687.750240,37.340833,-118.237778,2611.000000
18.75,18.86903,6.317308,12734.106737,37.341111,-118.237222,2625.000000
18.875,18.974427,6.326696,12742.388945,37.341111,-118.236944,2628.000000
19,19.07969,6.349445,12751.051045,37.341111,-118.236667,2634.000000
19.125,19.230783,6.436094,12732.072835,37.340833,-118.236389,2651.000000
19.25,19.33599,6.490005,12741.650297,37.340833,-118.236111,2664.000000
19.375,19.487662,6.514221,12721.246726,37.340556,-118.235833,2667.000000
19.5,19.592808,6.545714,12730.363951,37.340556,-118.235556,2675.000000
19.625,19.697817,6.581605,12739.643766,37.340556,-118.235278,2684.000000
19.75,19.802688,6.604032,12748.619944,37.340556,-118.235000,2690.000000
19.875,19.907421,6.604103,12757.055036,37.340556,-118.234722,2691.000000
20,20.012014,6.577404,12764.832495,37.340556,-118.234444,2686.000000
20.125,20.156271,6.533266,12676.216389,37.339722,-118.234444,2666.000000
20.25,20.26135,6.501901,12683.986154,37.339722,-118.234167,2660.000000
20.375,20.42215,6.455719,12729.166385,37.340000,-118.233611,2655.000000
20.5,20.513803,6.425301,12603.402964,37.338889,-118.233889,2634.000000
20.625,20.669056,6.376929,12581.867428,37.338611,-118.233611,2621.000000
20.75,20.769422,6.347584,12523.087997,37.338056,-118.233611,2608.000000
20.875,21.080831,6.353080,5530.369479,37.279444,-118.261111,1827.000000
21,21.197133,6.365744,5501.566161,37.279167,-118.261111,1825.000000
21.125,21.218756,6.413173,11929.726854,37.332778,-118.235000,2555.000000
21.25,21.329602,6.465522,11939.982413,37.332778,-118.234722,2567.000000
21.375,21.677013,6.530487,5521.509567,37.279167,-118.260556,1843.000000
21.5,21.605624,6.547693,11931.247476,37.332500,-118.234167,2583.000000
21.625,21.915764,6.622528,5531.757089,37.279167,-118.260278,1853.000000
21.75,21.915764,6.622528,5531.757089,37.279167,-118.260278,1853.000000
21.875,22.153716,6.642237,5541.293725,37.279167,-118.260000,1856.000000
22,22.27547,6.656127,5512.709454,37.278889,-118.260000,1854.000000
22.125,22.3985,6.659755,5484.033477,37.278611,-118.260000,1851.000000
22.25,22.513645,6.696279,5522.624014,37.278889,-118.259722,1859.000000
22.375,22.637707,6.731118,5494.350259,37.278611,-118.259722,1859.000000
22.5,22.579984,6.793883,11448.084822,37.327778,-118.234167,2576.000000
22.625,22.748703,6.859547,11497.486679,37.328056,-118.233611,2595.000000
22.75,22.869171,6.923805,11441.791822,37.327500,-118.233611,2601.000000
22.875,22.98352,6.992417,11453.167158,37.327500,-118.233333,2616.000000
23,23.097674,7.041029,11464.106242,37.327500,-118.233056,2627.000000
23.125,23.220294,7.086336,11408.097804,37.326944,-118.233056,2629.000000
23.25,23.363333,7.126067,11218.154885,37.325278,-118.233611,2613.000000
23.375,23.479581,7.185593,11229.518988,37.325278,-118.233333,2626.000000
23.5,23.606764,7.222287,11173.441311,37.324722,-118.233333,2626.000000
23.625,23.73525,7.238866,11116.911817,37.324167,-118.233333,2622.000000
23.75,23.874549,7.261387,9462.788371,37.310556,-118.240556,2415.000000
23.875,23.96681,7.304875,9368.371001,37.309722,-118.240833,2410.000000
24,24.088695,7.329585,9445.943573,37.310278,-118.240278,2424.000000
24.125,24.148894,7.347765,9484.875353,37.310556,-118.240000,2432.000000
24.25,24.285626,7.327914,9494.647693,37.310556,-118.239722,2430.000000
24.375,24.381759,7.293255,9398.671897,37.309722,-118.240000,2412.000000
24.5,24.519474,7.273208,9408.538133,37.309722,-118.239722,2410.000000
24.625,24.660778,7.237700,9178.881768,37.307778,-118.240556,2375.000000
24.75,24.801457,7.204778,9188.606446,37.307778,-118.240278,2371.000000
24.875,24.883096,7.183509,9159.964967,37.307500,-118.240278,2364.000000
25,25.21939,7.135443,5026.147106,37.273889,-118.259444,1839.000000
25.125,25.341351,7.189140,5410.187457,37.276944,-118.257500,1892.000000
25.25,25.474949,7.300970,5038.640115,37.273889,-118.259167,1855.000000
25.375,25.62794,7.420963,5011.955632,37.273611,-118.259167,1862.000000
25.5,25.782652,7.508004,4984.933793,37.273333,-118.259167,1866.000000
25.625,25.883509,7.597306,5024.810954,37.273611,-118.258889,1879.000000
25.75,26.039319,7.673624,4997.737854,37.273333,-118.258889,1882.000000
25.875,26.196881,7.682181,4969.900482,37.273056,-118.258889,1879.000000
26,26.294866,7.792928,5010.134789,37.273333,-118.258611,1894.000000
26.125,26.453513,7.813427,4982.496002,37.273056,-118.258611,1892.000000
26.25,26.549291,7.911487,5022.650807,37.273333,-118.258333,1906.000000
26.375,26.643591,7.951932,5062.136002,37.273611,-118.258056,1915.000000
26.5,26.80259,8.051831,5035.566209,37.273333,-118.258056,1920.000000
26.625,26.894734,8.102199,5075.237093,37.273611,-118.257778,1930.000000
26.75,27.054762,8.135131,5047.894215,37.273333,-118.257778,1929.000000
26.875,27.144764,8.229249,5088.180021,37.273611,-118.257500,1943.000000
27,27.320675,8.281399,5167.077309,37.274167,-118.256944,1959.000000
27.125,27.393679,8.355497,5101.242391,37.273611,-118.257222,1956.000000
27.25,27.565438,8.427362,5180.509778,37.274167,-118.256667,1974.000000
27.375,27.649381,8.505862,5220.756354,37.274444,-118.256389,1987.000000
27.5,27.809112,8.616037,5194.668564,37.274167,-118.256389,1993.000000
27.625,27.891043,8.627901,5234.061690,37.274444,-118.256111,2000.000000
27.75,28.051697,8.749177,5208.208280,37.274167,-118.256111,2007.000000
27.875,28.051697,8.749177,5208.208280,37.274167,-118.256111,2007.000000
28,28.293191,8.848947,5221.402267,37.274167,-118.255833,2018.000000
28.125,28.293191,8.848947,5221.402267,37.274167,-118.255833,2018.000000
28.25,28.456463,8.949654,5195.380094,37.273889,-118.255833,2023.000000
28.375,28.697759,9.070618,5209.073472,37.273889,-118.255556,2036.000000
28.5,28.697759,9.070618,5209.073472,37.273889,-118.255556,2036.000000
28.625,28.937947,9.136637,5222.079697,37.273889,-118.255278,2044.000000
28.75,29.011118,9.144300,5261.616831,37.274167,-118.255000,2051.000000
28.875,29.177025,9.191367,5235.021354,37.273889,-118.255000,2051.000000
29,29.177025,9.191367,5235.021354,37.273889,-118.255000,2051.000000
29.125,29.414993,9.245668,5248.056236,37.273889,-118.254722,2058.000000
29.25,29.414993,9.245668,5248.056236,37.273889,-118.254722,2058.000000
29.375,29.583486,9.293183,5221.573815,37.273611,-118.254722,2058.000000
29.5,29.821176,9.347099,5234.767656,37.273611,-118.254444,2065.000000
29.625,29.821176,9.347099,5234.767656,37.273611,-118.254444,2065.000000
29.75,29.992264,9.395053,5208.400254,37.273333,-118.254444,2065.000000
29.875,29.992264,9.395053,5208.400254,37.273333,-118.254444,2065.000000
30,30.293177,9.432160,5261.100928,37.273611,-118.253889,2077.000000
30.125,30.293177,9.432160,5261.100928,37.273611,-118.253889,2077.000000
30.25,30.527489,9.452708,5274.071000,37.273611,-118.253611,2081.000000
30.375,30.527489,9.452708,5274.071000,37.273611,-118.253611,2081.000000
30.5,30.760674,9.472999,5287.127217,37.273611,-118.253333,2085.000000
30.625,30.760674,9.472999,5287.127217,37.273611,-118.253333,2085.000000
30.75,30.992735,9.503696,5300.434714,37.273611,-118.253056,2090.000000
30.875,31.167753,9.519122,5273.896521,37.273333,-118.253056,2087.000000
31,31.22367,9.544719,5313.994432,37.273611,-118.252778,2096.000000
31.125,31.399429,9.560194,5287.520908,37.273333,-118.252778,2093.000000
31.25,31.453481,9.595982,5327.807831,37.273611,-118.252500,2103.000000
31.375,31.682168,9.625680,5341.372158,37.273611,-118.252222,2108.000000
31.5,31.682168,9.625680,5341.372158,37.273611,-118.252222,2108.000000
31.625,31.859363,9.641245,5315.028259,37.273333,-118.252222,2105.000000
31.75,31.859363,9.641245,5315.028259,37.273333,-118.252222,2105.000000
31.875,32.087624,9.691826,5329.078902,37.273333,-118.251944,2112.000000
32,32.314749,9.741988,5343.215511,37.273333,-118.251667,2119.000000
32.125,32.314749,9.741988,5343.215511,37.273333,-118.251667,2119.000000
32.25,32.540739,9.760120,5356.925745,37.273333,-118.251389,2123.000000
32.375,32.540739,9.760120,5356.925745,37.273333,-118.251389,2123.000000
32.5,32.540739,9.760120,5356.925745,37.273333,-118.251389,2123.000000
32.625,32.947257,9.793669,5344.685213,37.273056,-118.251111,2124.000000
32.75,32.947257,9.793669,5344.685213,37.273056,-118.251111,2124.000000
32.875,33.171618,9.821779,5358.793511,37.273056,-118.250833,2129.000000
33,33.171618,9.821779,5358.793511,37.273056,-118.250833,2129.000000
33.125,33.394835,9.849593,5372.982524,37.273056,-118.250556,2134.000000
33.25,33.394835,9.849593,5372.982524,37.273056,-118.250556,2134.000000
33.375,33.61691,9.877114,5387.251615,37.273056,-118.250278,2139.000000
33.5,33.61691,9.877114,5387.251615,37.273056,-118.250278,2139.000000
33.625,33.837846,9.935685,5402.119259,37.273056,-118.250000,2147.000000
33.75,34.057643,10.004203,5417.244509,37.273056,-118.249722,2156.000000
33.875,34.057643,10.004203,5417.244509,37.273056,-118.249722,2156.000000
34,34.244115,10.072415,5392.473641,37.272778,-118.249722,2158.000000
34.125,34.244115,10.072415,5392.473641,37.272778,-118.249722,2158.000000
34.25,34.463338,10.129973,5407.579860,37.272778,-118.249444,2166.000000
34.375,34.681415,10.187065,5422.767883,37.272778,-118.249167,2174.000000
34.5,34.681415,10.187065,5422.767883,37.272778,-118.249167,2174.000000
34.625,34.898348,10.254059,5438.215717,37.272778,-118.248889,2183.000000
34.75,34.898348,10.254059,5438.215717,37.272778,-118.248889,2183.000000
34.875,35.088248,10.333069,5413.906530,37.272500,-118.248889,2186.000000
